# http://www.eso.org/sci/facilities/paranal/instruments/fors/inst/Filters/curves.html
# wavelength in Angtroms, filter transmission (no atomsphere, optical or ccd efficiency included)
3000  -4.939408e-05 
3020  -8.922894e-05 
3040  -0.00016902145
3060  -0.00011415768
3080  -6.801509e-05 
3100  0.00023891581 
3120  0.00093500867 
3140  0.00253898889 
3160  0.00937304258 
3180  0.020429914   
3200  0.03494122267 
3220  0.06048472881 
3240  0.09786740303 
3260  0.1370058537  
3280  0.1826254654  
3300  0.2488032913  
3320  0.322677536   
3340  0.3887973022  
3360  0.4577093887  
3380  0.528489418   
3400  0.5808354568  
3420  0.6227180481  
3440  0.6672249603  
3460  0.7102267456  
3480  0.7429480743  
3500  0.7683620453  
3520  0.7871244812  
3540  0.7999835968  
3560  0.8104933167  
3580  0.8194657898  
3600  0.8247867584  
3620  0.8284771729  
3640  0.8326164246  
3660  0.8378349304  
3680  0.838660965   
3700  0.8359967804  
3720  0.8344275665  
3740  0.8420184326  
3760  0.8575481415  
3780  0.8746155548  
3800  0.8867375946  
3820  0.8781122589  
3840  0.797430191   
3860  0.5866581345  
3880  0.2916237068  
3900  0.08374047279 
3920  0.01441918731 
3940  0.00257964373 
3960  0.00058740795 
3980  0.00017826982 
4000  5.838174e-05  
4020  2.716049e-05  
4040  1.252319e-05  
4060  1.634166e-05  
4080  1.73451e-06   
4100  -2.05743e-06  
4120  4.96095e-06   
4140  2.41941e-06   
4160  4.3794e-06    
4180  9.4324e-06    
4200  -3.28462e-06  
4220  3.09806e-06   
4240  1.89036e-06   
4260  1.81834e-06   
4280  -4.32834e-06  
4300  -5.10607e-06  
4320  6.32992e-06   
4340  -1.87003e-06  
4360  6.95703e-06   
4380  1.95272e-06   
4400  4.44079e-06   
4420  1.3119e-06    
4440  6.34243e-06   
4460  -6.82551e-06  
4480  6.35537e-06   
4500  1.30779e-06   
4520  7.13e-07      
4540  4.49516e-06   
4560  2.5961e-06    
4580  6.89e-07      
4600  -4.33708e-06  
4620  1.95221e-06   
4640  3.22434e-06   
4660  3.83656e-06   
4680  -2.47841e-06  
4700  -1.77309e-06  
4720  2.58203e-06   
4740  1.33385e-06   
4760  1.93839e-06   
4780  1.268689e-05  
4800  7.48e-07      
4820  5.13205e-06   
4840  5.16925e-06   
4860  1.017733e-05  
4880  8.28468e-06   
4900  9.54655e-06   
4920  9.65e-08      
4940  2.00401e-06   
4960  1.145768e-05  
4980  5.15985e-06   
5000  1.36231e-06   
5020  7.03894e-06   
5040  -5.61928e-06  
5060  2.59922e-06   
5080  1.145894e-05  
5100  -1.001161e-05 
5120  2.626e-06     
5140  -2.33252e-06  
5160  -7.44582e-06  
5180  1.085551e-05  
5200  1.37297e-06   
5220  3.89445e-06   
5240  2.02531e-06   
5260  6.88e-07      
5280  -2.45863e-06  
5300  6.45526e-06   
5320  1.213569e-05  
5340  3.26244e-06   
5360  1.089322e-05  
5380  -1.73937e-06  
5400  5.22188e-06   
5420  1.31e-07      
5440  2.74895e-06   
5460  9.48e-08      
5480  -5.65696e-06  
5500  5.78399e-06   
5520  -1.84201e-06  
5540  9.61967e-06   
5560  5.78826e-06   
5580  -1.19154e-06  
5600  8.98032e-06   
5620  8.33156e-06   
5640  1.34517e-06   
5660  -2.5037e-06   
5680  2.59744e-06   
5700  1.535245e-05  
5720  3.74091e-06   
5740  -4.02084e-06  
5760  1.211341e-05  
5780  5.55421e-06   
5800  1.404777e-05  
5820  -4.96084e-06  
5840  6.3064e-06    
5860  2.47125e-06   
5880  -5.04418e-06  
5900  6.44129e-06   
5920  5.22352e-06   
5940  5.29554e-06   
5960  8.45729e-06   
5980  4.63574e-06   
6000  5.28315e-06   
6020  7.80376e-06   
6040  -4.56e-07     
6060  5.84644e-06   
6080  1.36e-07      
6100  3.87897e-06   
6120  1.30524e-06   
6140  1.90966e-06   
6160  1.336874e-05  
6180  -2.02743e-06  
6200  1.271934e-05  
6220  3.17576e-06   
6240  1.01982e-05   
6260  3.25301e-06   
6280  7.06255e-06   
6300  3.90939e-06   
6320  9.04037e-06   
6340  7.20725e-06   
6360  1.871891e-05  
6380  1.52825e-06   
6400  -2.31907e-06  
6420  6.03862e-06   
6440  6.05549e-06   
6460  1.181667e-05  
6480  2.83e-07      
6500  1.057986e-05  
6520  9.30278e-06   
6540  7.39243e-06   
6560  6.76615e-06   
6580  -3.12e-07     
6600  4.16542e-06   
6620  1.56216e-06   
6640  1.189449e-05  
6660  3.59e-07      
6680  9.95507e-06   
6700  -2.30464e-06  
6720  -3.56116e-06  
6740  8.66203e-06   
6760  7.39915e-06   
6780  5.4615e-06    
6800  2.8289e-06    
6820  -4.95219e-06  
6840  -7.48921e-06  
6860  5.45377e-06   
6880  2.65e-07      
6900  8.03297e-06   
6920  5.43955e-06   
6940  8.79e-07      
6960  2.19478e-06   
6980  3.47319e-06   
7000  -3.02599e-06  
7020  8.31e-07      
7040  4.17584e-06   
7060  -1.72547e-06  
7080  2.8451e-06    
7100  -5.65058e-06  
7120  1.52355e-06   
7140  8.3e-07       
7160  6.79429e-06   
7180  6.7565e-06    
7200  8.70967e-06   
7220  2.84391e-06   
7240  -1.17975e-06  
7260  1.55682e-06   
7280  8.13218e-06   
7300  9.18e-07      
7320  -3.10112e-06  
7340  9.41698e-06   
7360  8.33e-07      
7380  6.7995e-06    
7400  -4.01e-07     
7420  8.87e-07      
7440  2.28e-07      
7460  1.8e-07       
7480  7.50336e-06   
7500  1.08185e-05   
7520  2.85225e-06   
7540  2.17e-07      
7560  3.555e-06     
7580  1.483056e-05  
7600  3.811062e-05  
7620  1.949521e-05  
7640  -4.54e-07     
7660  -3.81935e-06  
7680  -5.10862e-06  
7700  3.53378e-06   
7720  8.24448e-06   
7740  -4.82e-07     
7760  2.2197e-06    
7780  8.22261e-06   
7800  5.54753e-06   
7820  6.87832e-06   
7840  1.623493e-05  
7860  1.223641e-05  
7880  1.024806e-05  
7900  5.55848e-06   
7920  4.19408e-06   
7940  6.92172e-06   
7960  -7.15509e-06  
7980  1.155788e-05  
8000  1.49951e-06   
8020  -3.17014e-06  
8040  8.57e-07      
8060  -1.90031e-06  
8080  2.095678e-05  
8100  8.22463e-06   
8120  2.09202e-06   
8140  7.88812e-06   
8160  6.81097e-06   
8180  1.11347e-06   
8200  1.11921e-05   
8220  1.65231e-06   
8240  1.379942e-05  
8260  -7.60178e-06  
8280  3.64509e-06   
8300  8.96132e-06   
8320  2.144652e-05  
8340  2.177909e-05  
8360  -1.369115e-05 
8380  -2.074742e-05 
8400  2.451334e-05  
8420  -9.74474e-06  
8440  1.472992e-05  
8460  3.068996e-05  
8480  4.292846e-05  
8500  3.36765e-05   
8520  -2.41593e-06  
8540  1.127392e-05  
8560  -4.88192e-06  
8580  -1.094012e-05 
8600  1.899935e-05  
8620  3.984311e-05  
8640  3.602857e-05  
8660  5.12666e-05   
8680  -5.677627e-05 
8700  1.661103e-05  
8720  4.076673e-05  
8740  7.64995e-06   
8760  -1.591091e-05 
8780  -2.31283e-05  
8800  -3.737326e-05 
8820  0.00012911939 
8840  -5.98722e-06  
8860  2.12489e-06   
8880  3.419206e-05  
8900  5.538814e-05  
8920  2.621077e-05  
8940  -5.788317e-05 
8960  2.08305e-06   
8980  5.880506e-05  
9000  6.318992e-05  
9020  -4.407438e-05 
9040  -4.70262e-06  
9060  3.3e-07       
9080  2.413799e-05  
9100  -6.57219e-06  
9120  1.286928e-05  
9140  1.39678e-06   
9160  1.32396e-05   
9180  3.09405e-06   
9200  5.787489e-05  
9220  -1.078449e-05 
9240  3.562551e-05  
9260  3.5243e-06    
9280  1.727583e-05  
9300  4.659079e-05  
9320  1.913392e-05  
9340  1.419843e-05  
9360  -2.996511e-05 
9380  3.281889e-05  
9400  -1.389138e-05 
9420  -2.28041e-05  
9440  -9.44021e-05  
9460  0.00017604763 
9480  2.753251e-05  
9500  4.211087e-05  
9520  -1.128405e-05 
9540  5.08774e-05   
9560  2.182312e-05  
9580  1.518886e-05  
9600  1.93e-07      
9620  4.17857e-06   
9640  1.741044e-05  
9660  1.538418e-05  
9680  8.19577e-06   
9700  5.229088e-05  
9720  2.824747e-05  
9740  -1.299163e-05 
9760  -5.15475e-06  
9780  -5.019068e-05 
9800  3.692719e-05  
9820  2.612937e-05  
9840  2.426758e-05  
9860  9.21136e-06   
9880  2.254918e-05  
9900  2.708173e-05  
9920  2.549234e-05  
9940  4.162227e-05  
9960  3.670129e-05  
9980  6.831394e-05  
10000 -1.928025e-05 
10020 9.97293e-06   
10040 2.312508e-05  
10060 2.131494e-05  
10080 -3.674671e-05 
10100 0.00017032696 
10120 4.39699e-05   
10140 7.55226e-06   
10160 2.848446e-05  
10180 2.558995e-05  
10200 1.916906e-05  
10220 5.148422e-05  
10240 2.561825e-05  
10260 8.622555e-05  
10280 3.818265e-05  
10300 1.11307e-05   
10320 6.098174e-05  
10340 3.496635e-05  
10360 5.123969e-05  
10380 4.070565e-05  
10400 6.546305e-05  
10420 5.874987e-05  
10440 9.544192e-05  
10460 7.073602e-05  
10480 8.770943e-05  
10500 6.349367e-05  
10520 8.765244e-05  
10540 9.14522e-05   
10560 0.00010896206 
10580 9.125297e-05  
10600 7.916059e-05  
10620 8.723626e-05  
10640 0.00011846395 
10660 0.00010664128 
10680 0.0001048564  
10700 5.910747e-05  
10720 0.00025208224 
10740 0.00018826809 
10760 0.0001424305  
10780 0.00014406192 
10800 0.00016836938 
10820 0.00016998267 
10840 0.00018154399 
10860 0.00017560598 
10880 0.00016811553 
10900 0.00020830976 
10920 0.00019098785 
10940 0.00019482812 
10960 0.00019510185 
10980 0.0001756791  
11000 0.00023734434 
11020 0.00023713192 
11040 0.00029076869 
11060 0.0002182431  
11080 0.00020840967 
11100 0.00026225615 
11120 0.00029087309 
11140 0.00025272401 
11160 0.00029101837 
11180 0.00029692912 
11200 0.00030985165 
11220 0.00029794427 
11240 0.00033314493 
11260 0.00034500569 
11280 0.00036729202 
11300 0.00036932867 
11320 0.000425147   
11340 0.00041278325 
11360 0.0004274787  
11380 0.0004728248  
11400 0.00053114649 
11420 0.00043993063 
11440 0.00051995654 
11460 0.00052098475 
11480 0.00051546626 
11500 0.00054340951 
11520 0.00075295717 
11540 0.00067365341 
11560 0.00066786647 
11580 0.00070311569 
11600 0.00075807221 
11620 0.00077174753 
11640 0.00087636635 
11660 0.00085675791 
11680 0.00093753837 
11700 0.00091573849 
11720 0.00101201445 
11740 0.00103260003 
11760 0.00107056476 
11780 0.00112121306 
11800 0.0011699903  
11820 0.0012593706  
11840 0.00127022848 
11860 0.00134471938 
11880 0.00141997248 
11900 0.00147467285 
11920 0.0015549098  
11940 0.00167495996 
11960 0.00165611476 
11980 0.00176773086 
12000 0.0018537344  
12020 0.00193424925 
12040 0.00200639829 
12060 0.00206481546 
12080 0.00220867127 
12100 0.00229476392 
12120 0.00241308153 
12140 0.002436537   
12160 0.00267816961 
12180 0.00270764053 
12200 0.00289745092 
12220 0.00301341236 
12240 0.00310855776 
12260 0.0031414035  
12280 0.00333872199 
12300 0.00344326288 
12320 0.00352104068 
12340 0.00368658304 
12360 0.00384266257 
12380 0.00390690148 
12400 0.00400280058 
12420 0.00420572996 
12440 0.00421345294 
12460 0.00434213042 
12480 0.00447457224 
12500 0.00461921603 
12520 0.0046933046  
12540 0.00481584758 
12560 0.0049095732  
12580 0.00502355278 
12600 0.00512096584 
12620 0.0052386564  
12640 0.00535473406 
12660 0.0055057317  
12680 0.00562289178 
12700 0.005754264   
12720 0.00590305805 
12740 0.00607802749 
12760 0.00621511698 
12780 0.00636811853 
12800 0.00655606687 
12820 0.00673263431 
12840 0.00703700662 
12860 0.00718806326 
12880 0.00743895054 
12900 0.00769343019 
12920 0.0079816097  
12940 0.00827570915 
12960 0.00858624399 
12980 0.00890026629 
13000 0.0092781055  
13020 0.00971651793 
13040 0.01011404634 
13060 0.01054085612 
13080 0.01102433205 
13100 0.01152227402 
13120 0.01206737876 
13140 0.01266132474 
13160 0.0132291162  
13180 0.01389360309 
13200 0.01460008502 
13220 0.01531392932 
13240 0.01606470346 
13260 0.01678147316 
13280 0.0176142323  
13300 0.01855502486 
13320 0.01930802464 
13340 0.02030727386 
13360 0.0211529541  
13380 0.02206884384 
13400 0.0230675745  
13420 0.02399976492 
13440 0.02490128517 
13460 0.02587462664 
13480 0.02680430651 
13500 0.02778428793 
13520 0.02864237547 
13540 0.02958305359 
13560 0.03049806595 
13580 0.03127584696 
13600 0.03208041191 
13620 0.03303048849 
13640 0.03366208076 
13660 0.03443636417 
13680 0.03505567789 
13700 0.03563885689 
13720 0.03603438377 
13740 0.03623488188 
13760 0.03635881901 
13780 0.03640766859 
13800 0.03665647984 
13820 0.03705945253 
13840 0.03751295805 
13860 0.0381519413  
13880 0.03877301455 
13900 0.03948749542 
13920 0.04024578094 
13940 0.04102493763 
13960 0.04189488411 
13980 0.04250229359 
14000 0.04340132713 
14020 0.04418561459 
14040 0.04501038551 
14060 0.04578771591 
14080 0.04656972408 
14100 0.04745821476 
14120 0.04821022034 
14140 0.04907126904 
14160 0.04997922421 
14180 0.05087594509 
14200 0.05186121464 
14220 0.05279930115 
14240 0.05375509739 
14260 0.05501224995 
14280 0.05607980728 
14300 0.05719966888 
14320 0.05855191231 
14340 0.05979230881 
14360 0.06117312908 
14380 0.06268205643 
14400 0.06411322117 
14420 0.06576564789 
14440 0.06730726242 
14460 0.06897751808 
14480 0.07094183445 
14500 0.07268161297 
14520 0.07454992294 
14540 0.0763201952  
14560 0.07854093552 
14580 0.08043054581 
14600 0.08244059563 
14620 0.0846667099  
14640 0.08679881096 
14660 0.08898275375 
14680 0.09116898537 
14700 0.09340074539 
14720 0.09560200691 
14740 0.09775361061 
14760 0.09987909317 
14780 0.1020446682  
14800 0.1041653252  
14820 0.1062914085  
14840 0.1082973194  
14860 0.1103312874  
14880 0.1123938084  
14900 0.1142829037  
14920 0.1160949039  
14940 0.1180073929  
14960 0.1198963642  
14980 0.121599493   
15000 0.1233789444  
